VAMAS Surface Chemical Analysis Standard Data Transfer Format 1988 May 4
Not specified
MI-600-BE9240AA
DESKTOP-MI6NA2R\kratos
20200220_PK_Cu_AES.experiment
4
Casa Info Follows CasaXPS Version 2.3.22PR1.0
0
SourceAnalyserAngle: Not Specified
CasaRowLabel:PK_Cu_AES
NORM
REGULAR
1
4
Index
d
PositionX [mm]
n
PositionY [mm]
n
PositionZ [mm]
n
0
0
0
0
4
Survey
PK_Cu_AES
2020
2
20
13
9
24
1
39
Casa Info Follows
0
0
0
0
Creation
Created by : DESKTOP-MI6NA2R\kratos
Date created : 20/02/2020 13:09
Computer : DESKTOP-MI6NA2R
Location
Location ID : 1: PK_Cu_AES
Sample : PK_Cu_AES
Description : (43.434,6.505,-2.973)mm
Tilt : 0.00
Charge Neutraliser : Off
Settings
Excitation
Mode : FEG Electron Gun
Tuning : 10 keV
Spot size : 0
Anode library : AES
ESCA modes
Collimation : AES
Lens : AES
Resolution : 3.00
Scan
Deflection : (0.000, 0.000)mm
Survey : 20.000-3000.000eV, Sweeps 2
Start : 20.000eV
End : 3000.000eV
Centre : 1510.000eV
Width : 2980.000eV
Step size : 1.000eV
Number Steps : 2980
Dwell time : 101ms
Sweep time : 300s
Sweeps : 2
Instrument Conditions
Work function : -4.50
XPS
1
43.434
6.50523
-2.9731
Not specified
0
1e+037
1e+037
1e+037
1e+037
1e+037
FAT
3
1e+037
-4.5
1e+037
1e+037
1e+037
1e+037
1e+037
Survey

-1
Kinetic energy
eV
20
1
2
Intensity
d
Transmission
d
pulse counting
0.100637
2
0
1e+037
1e+037
1e+037
0
5962
37146
293846
1
1
293846
1
249932
1
226768
1
249994
1
256328
1
254220
1
235576
1
213039
1
192202
1
185199
1
184915
1
181752
1
176875
1
167924
1
159261
1
151179
1
146702
1
142708
1
140311
1
137713
1
135402
1
130987
1
126214
1
123409
1
119769
1
116697
1
113927
1
112133
1
110503
1
109193
1
109907
1
110664
1
109632
1
107413
1
105536
1
104699
1
104027
1
102773
1
102679
1
103611
1
104074
1
104088
1
104215
1
101096
1
97161
1
94082
1
91423
1
89693
1
87563
1
85526
1
83730
1
82925
1
82270
1
81480
1
81618
1
81250
1
80269
1
79550
1
78860
1
78193
1
76906
1
76311
1
75129
1
74054
1
73454
1
72585
1
71287
1
70692
1
70355
1
69313
1
68245
1
68448
1
67668
1
67621
1
67138
1
66847
1
66394
1
66185
1
65263
1
65057
1
64837
1
65010
1
65142
1
65209
1
65020
1
64500
1
64357
1
64130
1
63521
1
63500
1
63090
1
62908
1
62926
1
62690
1
61793
1
61565
1
61085
1
60499
1
60169
1
59684
1
59410
1
59548
1
59736
1
59810
1
59139
1
59286
1
58722
1
58375
1
57895
1
57366
1
57168
1
56797
1
56924
1
57170
1
56932
1
56991
1
56955
1
56290
1
55980
1
55285
1
54667
1
54550
1
54487
1
54674
1
54860
1
55135
1
55025
1
54636
1
54953
1
54834
1
54281
1
53956
1
53665
1
53222
1
53185
1
52926
1
52995
1
53773
1
53539
1
53051
1
52373
1
52097
1
51067
1
50745
1
50487
1
50596
1
50676
1
50927
1
50291
1
50065
1
49928
1
49295
1
49054
1
48256
1
47687
1
47811
1
47643
1
47160
1
46611
1
46712
1
46342
1
46156
1
46121
1
46003
1
45684
1
45175
1
44810
1
44771
1
44976
1
44302
1
43934
1
44241
1
43981
1
43943
1
43453
1
43236
1
42952
1
42789
1
42724
1
42907
1
42954
1
42872
1
42669
1
42645
1
42211
1
42093
1
42207
1
41782
1
41920
1
42172
1
41927
1
41902
1
41806
1
41813
1
41776
1
41725
1
41380
1
41556
1
41556
1
41452
1
41781
1
41974
1
41857
1
42216
1
42130
1
42178
1
42290
1
42052
1
42343
1
42260
1
42360
1
42266
1
42622
1
42659
1
42459
1
42430
1
42819
1
42323
1
42761
1
42648
1
43067
1
43009
1
43327
1
43084
1
43369
1
43883
1
43361
1
43421
1
44092
1
44195
1
44062
1
44220
1
44840
1
45085
1
44992
1
45205
1
45582
1
45457
1
45420
1
45082
1
45161
1
45352
1
45222
1
45215
1
44857
1
44762
1
44513
1
44458
1
44076
1
43737
1
43726
1
43424
1
42467
1
42280
1
42163
1
42395
1
41859
1
41827
1
41541
1
41416
1
41258
1
41380
1
41268
1
40968
1
41198
1
41007
1
41198
1
41210
1
41107
1
41063
1
41059
1
41300
1
41127
1
40923
1
40849
1
40662
1
41023
1
40884
1
40621
1
40999
1
41080
1
40823
1
41312
1
41454
1
41245
1
41103
1
40837
1
40930
1
40764
1
40843
1
40685
1
40618
1
40562
1
40758
1
40215
1
40665
1
40833
1
40700
1
40469
1
40428
1
40642
1
40549
1
40216
1
40266
1
40539
1
40412
1
40306
1
40237
1
40146
1
40122
1
40284
1
40143
1
39892
1
39845
1
40354
1
39976
1
39937
1
40378
1
40203
1
40187
1
40478
1
40049
1
40033
1
40225
1
40171
1
40087
1
40041
1
39905
1
39763
1
39869
1
39662
1
39562
1
39395
1
39400
1
39527
1
39106
1
39235
1
39446
1
39474
1
39220
1
39270
1
38924
1
39116
1
38758
1
39082
1
38914
1
38824
1
39137
1
38971
1
38741
1
38523
1
38534
1
38355
1
38512
1
38560
1
38510
1
38555
1
38599
1
38357
1
38312
1
37871
1
38101
1
38400
1
38191
1
38086
1
38310
1
38094
1
38143
1
38133
1
37886
1
37912
1
37667
1
37936
1
37964
1
37813
1
38109
1
37789
1
37874
1
38129
1
37844
1
37851
1
37730
1
37724
1
37829
1
37567
1
37375
1
37296
1
37685
1
37984
1
37703
1
37649
1
37411
1
37413
1
37416
1
37462
1
37396
1
37546
1
37297
1
37408
1
37146
1
37442
1
37304
1
37580
1
37561
1
37213
1
37311
1
37271
1
37688
1
37231
1
37162
1
37518
1
37570
1
37543
1
37312
1
37309
1
37232
1
37739
1
37395
1
37644
1
37471
1
37800
1
37815
1
37677
1
37525
1
37493
1
38005
1
38105
1
38043
1
38179
1
38352
1
38550
1
38622
1
39061
1
39084
1
38968
1
39119
1
39141
1
39130
1
39206
1
39479
1
39669
1
39656
1
40154
1
39485
1
39659
1
40039
1
39812
1
39913
1
39962
1
40289
1
40322
1
40271
1
40605
1
40556
1
40896
1
41227
1
41175
1
41109
1
41302
1
41563
1
41326
1
42165
1
42542
1
42505
1
42983
1
43350
1
43506
1
43508
1
43987
1
43715
1
43815
1
43862
1
44009
1
44293
1
43890
1
44105
1
44210
1
44638
1
44630
1
44651
1
44986
1
45320
1
45430
1
46579
1
46782
1
47335
1
48310
1
49171
1
49275
1
49788
1
50064
1
49318
1
48506
1
47487
1
46892
1
46333
1
45798
1
45321
1
45156
1
44983
1
44571
1
44257
1
44215
1
44286
1
44096
1
44378
1
44308
1
44319
1
44470
1
44546
1
44497
1
44836
1
45045
1
45304
1
45473
1
45716
1
45878
1
46008
1
45850
1
46052
1
46035
1
46193
1
45814
1
45450
1
45619
1
45439
1
45737
1
45181
1
44908
1
45026
1
44901
1
44613
1
44389
1
43804
1
43709
1
43410
1
43005
1
42657
1
42952
1
42582
1
42451
1
42463
1
42132
1
42342
1
42511
1
42318
1
41874
1
42003
1
42032
1
42203
1
41892
1
42007
1
41921
1
41951
1
41885
1
42104
1
42031
1
42045
1
41993
1
41864
1
42135
1
42109
1
42042
1
41784
1
41620
1
41567
1
41623
1
41799
1
41783
1
41614
1
41678
1
41664
1
42096
1
41539
1
41742
1
41674
1
41843
1
41931
1
41856
1
41777
1
41813
1
42160
1
42094
1
42339
1
42501
1
42546
1
42466
1
42376
1
42666
1
42635
1
42748
1
42826
1
42761
1
42915
1
42920
1
42870
1
43089
1
42892
1
43344
1
43299
1
43423
1
43323
1
43416
1
43514
1
43446
1
43662
1
43675
1
43635
1
43672
1
43992
1
43894
1
43859
1
43772
1
43741
1
43781
1
43848
1
43963
1
44126
1
44192
1
43995
1
44118
1
44135
1
43987
1
43846
1
44036
1
44112
1
43860
1
44456
1
44377
1
44388
1
44288
1
44346
1
44258
1
43976
1
43761
1
43908
1
43740
1
43897
1
44132
1
44190
1
43902
1
43687
1
43702
1
43852
1
43740
1
43665
1
43738
1
43751
1
43646
1
44010
1
43627
1
43412
1
43523
1
43627
1
43587
1
43372
1
43576
1
43499
1
43403
1
43216
1
43194
1
43189
1
43058
1
43276
1
43240
1
43084
1
42799
1
43048
1
42722
1
42961
1
43194
1
43187
1
43044
1
43034
1
43068
1
43361
1
43150
1
43376
1
43747
1
43444
1
43102
1
43201
1
43629
1
43604
1
43492
1
44173
1
44185
1
43859
1
43868
1
44184
1
44161
1
44490
1
44695
1
44363
1
44511
1
44798
1
45093
1
45203
1
44826
1
44842
1
45299
1
45711
1
45587
1
45639
1
45733
1
46057
1
45864
1
46125
1
46485
1
46719
1
46811
1
46545
1
46824
1
47214
1
47212
1
47312
1
47412
1
47921
1
47872
1
47602
1
47068
1
47720
1
48001
1
48384
1
48441
1
49045
1
49240
1
48740
1
49468
1
49479
1
49518
1
49615
1
49796
1
50159
1
50215
1
50430
1
50911
1
51254
1
51452
1
51031
1
51072
1
51290
1
52010
1
51986
1
52250
1
52504
1
52626
1
52484
1
52188
1
51820
1
51941
1
52235
1
51869
1
51954
1
51716
1
52081
1
51552
1
50969
1
50680
1
50169
1
50342
1
50463
1
50288
1
50297
1
50263
1
50618
1
50545
1
50152
1
49956
1
49999
1
49842
1
50243
1
50320
1
50403
1
49982
1
49989
1
50270
1
49908
1
49734
1
49940
1
49991
1
50002
1
49585
1
49540
1
49973
1
49946
1
50028
1
50285
1
50026
1
50294
1
50563
1
50415
1
50644
1
50764
1
50453
1
50697
1
50724
1
51032
1
50772
1
50726
1
50764
1
51003
1
51468
1
51231
1
50947
1
51333
1
51761
1
52206
1
52242
1
52293
1
52516
1
52562
1
52306
1
52701
1
53304
1
53595
1
53860
1
54083
1
54301
1
54362
1
53350
1
52341
1
52202
1
52344
1
52404
1
52278
1
52213
1
51704
1
51287
1
50801
1
50121
1
49715
1
49525
1
49217
1
49159
1
49053
1
49237
1
49322
1
49444
1
49258
1
49198
1
48697
1
48405
1
48336
1
48090
1
48427
1
48209
1
48113
1
48130
1
48052
1
48260
1
48434
1
48315
1
48246
1
48475
1
48230
1
48484
1
48574
1
48594
1
48515
1
48888
1
48932
1
48984
1
49670
1
49198
1
49618
1
49707
1
49793
1
49687
1
50177
1
49880
1
50178
1
50714
1
50553
1
50355
1
50556
1
50558
1
50582
1
50682
1
50575
1
50641
1
51195
1
50922
1
51617
1
51356
1
51848
1
52153
1
52326
1
52673
1
53105
1
53158
1
54049
1
55266
1
55840
1
56652
1
58331
1
58959
1
59662
1
59348
1
57471
1
55101
1
51980
1
50106
1
48896
1
47768
1
47533
1
47302
1
47125
1
46857
1
46728
1
46748
1
47087
1
46549
1
47091
1
47422
1
47391
1
47353
1
47184
1
46845
1
46097
1
46229
1
45184
1
45168
1
45003
1
44868
1
44767
1
44516
1
44541
1
44696
1
44864
1
44549
1
44698
1
44822
1
44639
1
44768
1
44736
1
45100
1
45070
1
45004
1
45014
1
45189
1
45232
1
45247
1
45493
1
45715
1
45440
1
45118
1
45376
1
45697
1
45760
1
45482
1
45488
1
45796
1
45636
1
45696
1
45956
1
45743
1
45566
1
45699
1
45943
1
45827
1
46083
1
46008
1
45872
1
46270
1
46458
1
46642
1
46224
1
46176
1
46476
1
45949
1
46504
1
46522
1
46588
1
46523
1
46809
1
46692
1
46600
1
46784
1
46596
1
46592
1
46499
1
46984
1
47074
1
46773
1
46780
1
47097
1
46966
1
47360
1
47292
1
47051
1
47101
1
47205
1
47402
1
47532
1
47519
1
46623
1
47244
1
47405
1
47512
1
47110
1
47714
1
47730
1
47507
1
47242
1
47217
1
47377
1
47871
1
47717
1
47561
1
47355
1
47522
1
47880
1
48095
1
47844
1
47477
1
47925
1
47795
1
47664
1
47953
1
47958
1
47714
1
48048
1
48345
1
48024
1
48128
1
48185
1
48336
1
47991
1
48176
1
48247
1
47963
1
48185
1
48141
1
48645
1
48490
1
48255
1
48517
1
48480
1
48725
1
48533
1
48925
1
49087
1
48849
1
49014
1
48988
1
48938
1
48998
1
49263
1
49479
1
49041
1
49343
1
49156
1
48959
1
49240
1
49597
1
49309
1
49515
1
49725
1
49542
1
49428
1
49525
1
49826
1
49779
1
49889
1
49811
1
49886
1
50236
1
49945
1
50294
1
50276
1
50257
1
50375
1
50460
1
50213
1
50485
1
50303
1
50579
1
50377
1
50343
1
50703
1
51077
1
51114
1
51267
1
51121
1
50804
1
51229
1
50958
1
51032
1
51266
1
51295
1
51343
1
51422
1
51752
1
51646
1
51496
1
51483
1
51565
1
51721
1
51418
1
51894
1
52173
1
52242
1
52030
1
52080
1
51961
1
51926
1
52189
1
52076
1
52025
1
52284
1
52349
1
52398
1
52153
1
52383
1
52585
1
52740
1
52645
1
52594
1
52948
1
52544
1
52810
1
52549
1
52630
1
52794
1
53073
1
52812
1
53008
1
52881
1
52821
1
52840
1
52853
1
53266
1
53149
1
53193
1
53344
1
53151
1
53000
1
53224
1
53212
1
53086
1
53259
1
53277
1
53325
1
53459
1
53094
1
53300
1
53341
1
53299
1
53453
1
53598
1
53340
1
53450
1
53458
1
53352
1
53493
1
53601
1
53987
1
53802
1
53860
1
53764
1
53450
1
53375
1
53660
1
53714
1
53630
1
54051
1
53858
1
53515
1
53450
1
53548
1
53487
1
53329
1
53539
1
53487
1
53559
1
53598
1
53846
1
53723
1
53638
1
53440
1
53448
1
53701
1
53851
1
53822
1
53759
1
53694
1
53816
1
53698
1
53330
1
53543
1
53687
1
53420
1
53438
1
52988
1
53229
1
53333
1
53079
1
53609
1
53512
1
52877
1
53106
1
52786
1
52886
1
53305
1
53131
1
53222
1
53306
1
52854
1
52884
1
52979
1
53268
1
53504
1
52898
1
52896
1
53236
1
53028
1
52781
1
52906
1
52567
1
52703
1
52636
1
52968
1
52821
1
52446
1
52730
1
52834
1
52504
1
52455
1
52245
1
52367
1
52647
1
52235
1
52014
1
52117
1
52304
1
51978
1
52082
1
52035
1
52171
1
51829
1
51522
1
51640
1
51436
1
51596
1
51693
1
51872
1
51780
1
51391
1
51481
1
51600
1
51531
1
51302
1
51244
1
51104
1
51107
1
51149
1
51270
1
51124
1
50962
1
50763
1
50742
1
50906
1
50731
1
50827
1
50689
1
50503
1
50496
1
50697
1
50775
1
50569
1
50581
1
50818
1
50785
1
50388
1
50271
1
50489
1
50330
1
50597
1
50366
1
50590
1
50515
1
50027
1
49961
1
50473
1
50265
1
50307
1
50208
1
50260
1
50224
1
49916
1
50348
1
50244
1
50079
1
49919
1
50174
1
50126
1
49994
1
50109
1
49890
1
49882
1
49800
1
49890
1
50104
1
49897
1
49651
1
49744
1
50038
1
50018
1
50279
1
49823
1
49660
1
49622
1
49604
1
49861
1
49866
1
49714
1
49933
1
49837
1
49730
1
49460
1
50075
1
49823
1
49573
1
49741
1
49678
1
49326
1
49736
1
49563
1
49519
1
49861
1
49881
1
49611
1
49929
1
49722
1
49625
1
49861
1
49740
1
50157
1
49733
1
49779
1
50066
1
49490
1
49850
1
49709
1
49611
1
49781
1
49917
1
49889
1
49798
1
50033
1
50148
1
50295
1
49904
1
50342
1
49996
1
49683
1
49996
1
49766
1
49960
1
50018
1
50124
1
50157
1
50129
1
50451
1
50435
1
49976
1
50131
1
50428
1
50144
1
50512
1
50213
1
50106
1
50219
1
50210
1
50261
1
50213
1
50626
1
50572
1
50915
1
50786
1
50755
1
50950
1
50754
1
50632
1
50770
1
50796
1
50575
1
50599
1
50816
1
50864
1
51188
1
51078
1
51167
1
51143
1
51233
1
50936
1
51177
1
51305
1
51499
1
51454
1
51601
1
51650
1
51607
1
51527
1
51447
1
51873
1
51770
1
52115
1
51936
1
52013
1
51943
1
51669
1
51825
1
52005
1
52400
1
52428
1
51987
1
51952
1
52085
1
52076
1
52074
1
52409
1
52478
1
52555
1
52659
1
52468
1
52559
1
52646
1
52375
1
52780
1
52779
1
53103
1
53030
1
52806
1
53090
1
53254
1
53423
1
53425
1
53310
1
53405
1
53614
1
53391
1
53497
1
53323
1
53410
1
53660
1
53763
1
53954
1
53713
1
53803
1
53479
1
53484
1
53760
1
53941
1
54058
1
53880
1
53785
1
54467
1
54222
1
54730
1
54563
1
54095
1
54684
1
54668
1
54989
1
54493
1
54584
1
54494
1
54771
1
54785
1
54588
1
54725
1
55041
1
54985
1
55171
1
54904
1
55445
1
55331
1
55965
1
55835
1
55677
1
55388
1
55838
1
55708
1
55852
1
55643
1
55716
1
55820
1
55738
1
55809
1
55814
1
55885
1
55791
1
55720
1
56250
1
56536
1
56575
1
56229
1
56775
1
56503
1
56500
1
56389
1
56647
1
56544
1
56356
1
56887
1
57231
1
56622
1
56743
1
57015
1
57023
1
56920
1
57071
1
56939
1
57320
1
57256
1
57217
1
57332
1
57486
1
57496
1
57815
1
57698
1
57833
1
57682
1
57798
1
57797
1
57854
1
57888
1
57791
1
57708
1
57969
1
57880
1
58215
1
58141
1
58194
1
58334
1
58084
1
57776
1
58260
1
58455
1
58710
1
58464
1
58866
1
59247
1
58934
1
58784
1
58927
1
58676
1
58559
1
58810
1
58763
1
58981
1
58777
1
59046
1
58880
1
59005
1
59270
1
59618
1
59341
1
58940
1
59320
1
59424
1
59389
1
59518
1
59617
1
59018
1
59661
1
59957
1
59888
1
59686
1
60250
1
60470
1
60146
1
60119
1
60327
1
60445
1
60442
1
60348
1
60269
1
60644
1
60945
1
60788
1
60961
1
60693
1
60733
1
61580
1
61517
1
61052
1
61587
1
61663
1
61902
1
61494
1
61633
1
61544
1
61466
1
61242
1
61269
1
61593
1
61588
1
61603
1
61425
1
61887
1
61310
1
61621
1
61816
1
62027
1
61870
1
61853
1
62064
1
62048
1
61970
1
62230
1
62254
1
62471
1
62035
1
62843
1
62394
1
62672
1
62692
1
62830
1
62802
1
62636
1
62826
1
62696
1
63045
1
62971
1
62976
1
63317
1
63162
1
63053
1
62966
1
63467
1
63267
1
63124
1
63241
1
63288
1
63164
1
63145
1
63134
1
63151
1
63518
1
64068
1
64156
1
63671
1
64095
1
63858
1
64443
1
64067
1
64049
1
64338
1
64316
1
64063
1
64073
1
64259
1
64078
1
64363
1
64383
1
64519
1
64493
1
64562
1
64872
1
64509
1
64597
1
64822
1
65079
1
64928
1
64915
1
65099
1
65536
1
65436
1
65015
1
65351
1
65364
1
64846
1
65051
1
65376
1
65519
1
65301
1
65698
1
65319
1
65365
1
65746
1
65798
1
66165
1
65583
1
65751
1
65358
1
66076
1
65942
1
66100
1
66225
1
66246
1
65995
1
66461
1
66290
1
66543
1
66267
1
66766
1
66915
1
66602
1
66343
1
66499
1
66319
1
66686
1
67027
1
66524
1
67259
1
66903
1
66570
1
66803
1
67150
1
66826
1
66738
1
66979
1
66674
1
67176
1
67701
1
67526
1
67088
1
67284
1
67434
1
67425
1
67621
1
67374
1
68088
1
68309
1
68244
1
67472
1
67740
1
67898
1
68238
1
67954
1
68551
1
68564
1
68325
1
68256
1
68298
1
68127
1
68227
1
68275
1
68622
1
68558
1
68764
1
68633
1
68640
1
68245
1
67859
1
68860
1
68771
1
68981
1
68772
1
69022
1
68895
1
69303
1
69501
1
69493
1
69498
1
69107
1
69581
1
69248
1
69025
1
69479
1
69005
1
69160
1
69491
1
69527
1
69526
1
69609
1
69924
1
69605
1
69184
1
69415
1
69468
1
69662
1
69939
1
70052
1
70088
1
70496
1
70077
1
70181
1
70330
1
70176
1
70101
1
70280
1
70346
1
70663
1
70197
1
70402
1
70732
1
70601
1
70427
1
70486
1
70378
1
70955
1
71097
1
70817
1
70697
1
70592
1
70875
1
70872
1
70829
1
71206
1
70973
1
70789
1
71212
1
71227
1
71493
1
71230
1
71462
1
71117
1
70718
1
71371
1
71465
1
71595
1
71176
1
71304
1
71958
1
71437
1
71424
1
71458
1
72012
1
71830
1
71838
1
71639
1
71750
1
71713
1
72095
1
72170
1
72220
1
71960
1
72121
1
72244
1
72610
1
72127
1
72678
1
72970
1
72138
1
72387
1
72299
1
72374
1
72761
1
72366
1
72543
1
72354
1
72631
1
72497
1
72727
1
72697
1
73014
1
73103
1
72661
1
72526
1
73245
1
73437
1
72921
1
72795
1
72694
1
73062
1
73503
1
73227
1
72954
1
73543
1
73671
1
73312
1
73522
1
73405
1
73440
1
73363
1
73841
1
73956
1
73712
1
73565
1
73151
1
73721
1
74246
1
74136
1
73699
1
73662
1
73845
1
73877
1
73669
1
73947
1
73440
1
73576
1
74176
1
73895
1
74275
1
74540
1
74278
1
74160
1
74337
1
74540
1
74601
1
74342
1
74571
1
74404
1
74648
1
74526
1
74507
1
74508
1
74511
1
74257
1
74728
1
74833
1
74664
1
74691
1
74596
1
74419
1
75117
1
75249
1
75125
1
75334
1
75221
1
74888
1
75180
1
75314
1
75631
1
75416
1
75003
1
74846
1
75379
1
75660
1
75897
1
75561
1
75431
1
75652
1
75198
1
75307
1
75603
1
75776
1
75723
1
75660
1
75716
1
75705
1
75468
1
75921
1
75873
1
76515
1
75902
1
75643
1
76031
1
76135
1
75959
1
75990
1
75866
1
76123
1
75650
1
76334
1
76317
1
75920
1
76247
1
75826
1
76043
1
76760
1
76227
1
76393
1
76672
1
77043
1
76801
1
76848
1
76649
1
76406
1
76829
1
76585
1
76678
1
76532
1
76392
1
76608
1
76537
1
76698
1
77250
1
77117
1
77064
1
76948
1
77270
1
77524
1
77093
1
76907
1
76916
1
77016
1
76910
1
76957
1
77078
1
77439
1
77377
1
77666
1
77675
1
77470
1
77119
1
77152
1
77136
1
77491
1
77641
1
77466
1
77904
1
77497
1
77087
1
77416
1
77629
1
77810
1
77767
1
78110
1
77763
1
77286
1
77518
1
77917
1
78121
1
77920
1
78222
1
78156
1
78282
1
78342
1
78208
1
77860
1
78176
1
77662
1
77758
1
77954
1
77994
1
78301
1
78351
1
77719
1
78336
1
78811
1
78747
1
78531
1
78090
1
78332
1
78404
1
78652
1
78440
1
78434
1
78532
1
78437
1
78559
1
79182
1
78914
1
79049
1
78951
1
78475
1
78916
1
79098
1
79040
1
78760
1
79220
1
79229
1
78873
1
79254
1
79320
1
79225
1
79570
1
79436
1
79387
1
79185
1
79254
1
78957
1
79093
1
79483
1
79663
1
79493
1
79462
1
79464
1
79979
1
79845
1
79623
1
79784
1
79771
1
79946
1
79709
1
79606
1
79618
1
79935
1
79826
1
79915
1
80133
1
79762
1
80140
1
79932
1
80297
1
80342
1
80176
1
79556
1
79974
1
80407
1
80219
1
80364
1
80527
1
80577
1
80384
1
80209
1
80399
1
80693
1
80658
1
80734
1
80824
1
80647
1
80638
1
80668
1
80844
1
80681
1
80731
1
81079
1
81053
1
80672
1
80807
1
81268
1
80991
1
81427
1
81452
1
80787
1
81279
1
81328
1
81304
1
81179
1
81661
1
81673
1
81541
1
81436
1
81202
1
81357
1
82133
1
82177
1
81845
1
81541
1
81998
1
81460
1
81434
1
81605
1
81951
1
81798
1
81508
1
81861
1
82193
1
82378
1
82209
1
81744
1
81864
1
82459
1
81972
1
82228
1
81932
1
82353
1
82631
1
82131
1
82437
1
82214
1
82203
1
82273
1
82150
1
82159
1
82353
1
82368
1
82328
1
82818
1
82771
1
82757
1
82509
1
82529
1
82797
1
82943
1
82674
1
82697
1
83451
1
83289
1
83316
1
83165
1
82859
1
83003
1
83307
1
83091
1
83268
1
83417
1
83395
1
83414
1
83696
1
83304
1
83637
1
83739
1
83676
1
83790
1
83773
1
83437
1
84007
1
83599
1
83881
1
83692
1
83921
1
83682
1
84045
1
84090
1
83566
1
83984
1
83836
1
84304
1
84202
1
83897
1
84213
1
83695
1
84243
1
84224
1
84073
1
84543
1
84390
1
84366
1
84572
1
84620
1
84657
1
84164
1
84810
1
84464
1
84730
1
84821
1
84709
1
84544
1
84544
1
84572
1
84777
1
85149
1
84627
1
85064
1
84694
1
85118
1
85308
1
84724
1
84939
1
84651
1
84997
1
85158
1
85051
1
85310
1
85285
1
85151
1
85336
1
85333
1
85338
1
85598
1
85784
1
86049
1
85870
1
85407
1
85561
1
85747
1
85588
1
85353
1
85719
1
85959
1
86241
1
85871
1
85635
1
85832
1
85319
1
85853
1
86231
1
86102
1
86418
1
86614
1
86530
1
86359
1
86677
1
86894
1
87374
1
86697
1
86636
1
87120
1
86625
1
86404
1
86383
1
86361
1
86263
1
86432
1
86778
1
87019
1
86717
1
86562
1
86881
1
86801
1
87340
1
87370
1
87550
1
87267
1
87079
1
87486
1
86980
1
87282
1
87283
1
87416
1
87629
1
87583
1
87454
1
87831
1
87913
1
88016
1
87672
1
87226
1
87442
1
87514
1
87715
1
87707
1
87829
1
87668
1
87896
1
87795
1
88048
1
87805
1
88398
1
88192
1
88091
1
87923
1
88200
1
88213
1
88259
1
88236
1
88045
1
88041
1
88282
1
88382
1
88750
1
88770
1
88423
1
88542
1
88542
1
88525
1
88678
1
88509
1
88537
1
88035
1
88359
1
88659
1
88923
1
88930
1
89404
1
88784
1
88808
1
89354
1
89448
1
89415
1
89386
1
89643
1
89928
1
89385
1
88912
1
89350
1
89383
1
89197
1
89980
1
89748
1
89681
1
89758
1
89298
1
90189
1
90189
1
89602
1
89948
1
90473
1
90169
1
90214
1
89869
1
89967
1
90298
1
90346
1
89942
1
90427
1
90632
1
90250
1
90108
1
90198
1
90463
1
90777
1
90630
1
91128
1
90426
1
89770
1
90639
1
90997
1
91073
1
90722
1
91002
1
91364
1
91233
1
90627
1
90885
1
90970
1
91164
1
90686
1
91027
1
91269
1
91569
1
91131
1
91454
1
91814
1
92204
1
91640
1
91119
1
91607
1
91050
1
91471
1
91757
1
91980
1
91860
1
91927
1
91264
1
91921
1
91677
1
91767
1
91576
1
92325
1
92412
1
92026
1
92243
1
91862
1
92340
1
92242
1
92297
1
92447
1
92629
1
93015
1
92702
1
92787
1
92830
1
92702
1
92476
1
92629
1
92724
1
92798
1
92514
1
93121
1
93252
1
92730
1
93220
1
93391
1
93312
1
93101
1
92710
1
93461
1
93392
1
93232
1
93539
1
93589
1
93384
1
93553
1
93646
1
93449
1
93736
1
93636
1
93377
1
93723
1
93965
1
93889
1
94127
1
94375
1
93848
1
94392
1
93494
1
94070
1
94350
1
94129
1
94204
1
94001
1
94000
1
94509
1
94204
1
94210
1
94304
1
94571
1
94991
1
94529
1
94047
1
94721
1
94192
1
94726
1
94347
1
95145
1
94786
1
95313
1
95067
1
94761
1
95297
1
95525
1
94994
1
95132
1
95201
1
95423
1
95296
1
95029
1
95325
1
95536
1
95999
1
95523
1
95293
1
95107
1
95774
1
95585
1
95826
1
95596
1
95376
1
95670
1
95890
1
96227
1
96097
1
95701
1
95821
1
95865
1
96024
1
95758
1
95936
1
96358
1
96274
1
96343
1
96213
1
96558
1
96376
1
96227
1
96597
1
96461
1
97058
1
96833
1
96952
1
97428
1
97453
1
96773
1
97367
1
97117
1
97387
1
97006
1
97096
1
97169
1
96814
1
96782
1
96727
1
96900
1
97366
1
97493
1
97737
1
97047
1
97803
1
96761
1
97291
1
97526
1
97511
1
97941
1
97574
1
97425
1
97707
1
97572
1
98018
1
98769
1
98620
1
97783
1
98496
1
98338
1
98192
1
98455
1
98403
1
98652
1
97766
1
98352
1
98691
1
98670
1
98625
1
98605
1
98861
1
98242
1
99068
1
99142
1
98909
1
98713
1
98656
1
99088
1
98812
1
98668
1
98982
1
99137
1
99095
1
99026
1
98983
1
99231
1
99581
1
100074
1
99637
1
99739
1
100183
1
99965
1
99431
1
99456
1
100109
1
99695
1
99662
1
99488
1
99658
1
99810
1
100095
1
99892
1
99699
1
100414
1
100585
1
100313
1
100356
1
100736
1
100064
1
100615
1
100869
1
100882
1
100875
1
100874
1
101333
1
101215
1
101170
1
101243
1
101286
1
100864
1
101172
1
101098
1
101578
1
101482
1
100998
1
101054
1
101269
1
101589
1
101374
1
101299
1
101224
1
101401
1
101749
1
101372
1
101224
1
101647
1
102203
1
101997
1
101977
1
101808
1
101588
1
102415
1
102004
1
102285
1
101893
1
101754
1
102083
1
102272
1
102994
1
102930
1
102334
1
101955
1
102292
1
102533
1
102665
1
103342
1
103157
1
102926
1
102894
1
102672
1
103091
1
103203
1
102897
1
102978
1
102994
1
103482
1
103247
1
103183
1
103352
1
103729
1
103843
1
103863
1
103943
1
103625
1
103594
1
103796
1
103382
1
103433
1
103560
1
103816
1
103809
1
103395
1
103792
1
103696
1
103817
1
104013
1
104513
1
104364
1
104805
1
104351
1
104085
1
103956
1
104698
1
104325
1
104349
1
104320
1
104582
1
104275
1
104907
1
105241
1
104969
1
105536
1
104889
1
104854
1
105289
1
105061
1
104920
1
105466
1
104918
1
105375
1
105521
1
105782
1
105726
1
105209
1
105487
1
105571
1
105774
1
105604
1
105913
1
105665
1
105668
1
105752
1
105973
1
105874
1
105958
1
106191
1
106159
1
106411
1
105995
1
106558
1
106685
1
106939
1
107023
1
106662
1
106944
1
106593
1
106681
1
107247
1
107101
1
106627
1
106827
1
106693
1
107269
1
106626
1
107132
1
107510
1
107787
1
106799
1
107458
1
107780
1
107987
1
107044
1
107493
1
107442
1
107598
1
107453
1
107898
1
108157
1
107597
1
107951
1
108032
1
107898
1
107896
1
107789
1
108294
1
108884
1
108233
1
108208
1
108560
1
108330
1
108150
1
109101
1
109331
1
109008
1
108453
1
108626
1
109130
1
109273
1
109112
1
109207
1
108991
1
109164
1
108797
1
109123
1
109822
1
109484
1
109307
1
109667
1
109503
1
109750
1
109304
1
109671
1
109758
1
109738
1
109180
1
110043
1
109800
1
109729
1
109924
1
110120
1
109780
1
109705
1
110000
1
110292
1
110131
1
110383
1
110559
1
110422
1
110335
1
110652
1
110366
1
110812
1
111125
1
110742
1
110662
1
110706
1
110766
1
111032
1
111016
1
111019
1
111023
1
111424
1
111699
1
111574
1
111209
1
111340
1
111757
1
112224
1
112463
1
111793
1
111815
1
112131
1
111969
1
112222
1
112372
1
111871
1
112049
1
112669
1
112820
1
112602
1
112298
1
112565
1
112441
1
112713
1
112819
1
112951
1
112411
1
112772
1
113367
1
113340
1
114294
1
113051
1
113104
1
113602
1
113968
1
113399
1
113246
1
113939
1
113578
1
113761
1
113902
1
114617
1
114238
1
114319
1
114844
1
114152
1
114230
1
114283
1
114069
1
114059
1
114483
1
115230
1
114522
1
114940
1
114764
1
114510
1
114886
1
114441
1
115077
1
115147
1
115271
1
115306
1
115584
1
116009
1
116238
1
115579
1
115900
1
115922
1
116058
1
116562
1
117039
1
116453
1
116135
1
116287
1
116126
1
115951
1
116367
1
116322
1
116543
1
116331
1
116721
1
116853
1
116442
1
116883
1
116960
1
116762
1
117102
1
117303
1
117639
1
117836
1
117360
1
117497
1
117732
1
117689
1
117863
1
117656
1
118269
1
118348
1
118388
1
118470
1
118315
1
118278
1
117991
1
117917
1
118878
1
118783
1
118522
1
118727
1
118727
1
119329
1
118847
1
118969
1
119373
1
119526
1
119114
1
119582
1
119543
1
119282
1
119528
1
119468
1
119862
1
119368
1
118789
1
119149
1
120519
1
119953
1
120408
1
120177
1
119822
1
119738
1
120358
1
120159
1
120113
1
120009
1
120429
1
120058
1
120096
1
120619
1
120078
1
121147
1
120973
1
120716
1
121283
1
121665
1
121202
1
121357
1
121548
1
121487
1
121083
1
121407
1
121796
1
121958
1
121636
1
121701
1
121860
1
121447
1
121969
1
122156
1
121628
1
122368
1
122137
1
122194
1
122217
1
122781
1
122466
1
122218
1
122585
1
122503
1
122602
1
123018
1
1: C KLL
PK_Cu_AES
2020
2
20
13
31
23
1
42
Casa Info Follows
0
0
0
0
Creation
Created by : DESKTOP-MI6NA2R\kratos
Date created : 20/02/2020 13:31
Computer : DESKTOP-MI6NA2R
Location
Location ID : 1: PK_Cu_AES
Sample : PK_Cu_AES
Description : (43.434,6.505,-2.973)mm
Tilt : 0.00
Charge Neutraliser : Off
Settings
Excitation
Mode : FEG Electron Gun
Tuning : 10 keV
Spot size : 0
Anode library : AES
ESCA modes
Collimation : AES
Lens : AES
Resolution : 3.00
Scan
Deflection : (0.000, 0.000)mm
C KLL : 200.000-300.000eV, Sweeps 5
Start : 200.000eV
End : 300.000eV
Centre : 250.000eV
Width : 100.000eV
Step size : 0.200eV
Number Steps : 500
Dwell time : 359ms
Sweep time : 180s
Sweeps : 5
Target quality : 200
Instrument Conditions
Work function : -4.50
Acquisition Conditions
Quality : 82.12
XPS
2
43.434
6.50523
-2.9731
Not specified
0
1e+037
1e+037
1e+037
1e+037
1e+037
FAT
3
1e+037
-4.5
1e+037
1e+037
1e+037
1e+037
1e+037
C
KLL
-1
Kinetic energy
eV
200
0.2
2
Intensity
d
Transmission
d
pulse counting
0.359281
5
0
1e+037
1e+037
1e+037
0
1002
226495
252397
1
1
252397
1
251580
1
252224
1
251673
1
251165
1
251694
1
250931
1
251642
1
251268
1
251624
1
250967
1
250216
1
250659
1
250242
1
250190
1
249955
1
249379
1
248445
1
248563
1
249066
1
248482
1
248975
1
248623
1
248178
1
247835
1
247917
1
248019
1
248080
1
247308
1
247790
1
247946
1
247024
1
247999
1
247661
1
247983
1
247132
1
247379
1
246905
1
247208
1
247718
1
246985
1
246978
1
247491
1
247216
1
247636
1
247828
1
247324
1
247455
1
247598
1
246857
1
247404
1
248137
1
248223
1
248160
1
247502
1
248613
1
247721
1
247962
1
247569
1
247934
1
247966
1
248406
1
248553
1
247803
1
247791
1
247813
1
248393
1
247621
1
247493
1
247200
1
247653
1
246884
1
246700
1
247302
1
247911
1
246724
1
246985
1
247610
1
247584
1
247572
1
247315
1
247124
1
246842
1
247763
1
246598
1
246606
1
246728
1
247084
1
247298
1
246441
1
245821
1
246636
1
246373
1
246174
1
245851
1
246481
1
246657
1
246202
1
245543
1
245577
1
245530
1
246029
1
245614
1
245058
1
245452
1
245715
1
245263
1
245134
1
245204
1
245084
1
245282
1
245392
1
245012
1
244687
1
244307
1
244644
1
244930
1
245184
1
245207
1
244858
1
245065
1
245101
1
244674
1
244595
1
244245
1
244788
1
244508
1
244252
1
244666
1
244287
1
244421
1
243994
1
244574
1
245284
1
244962
1
244541
1
243762
1
243476
1
243752
1
244266
1
243108
1
243355
1
244019
1
243265
1
243930
1
243543
1
243861
1
243891
1
244486
1
243513
1
243436
1
243758
1
243554
1
243529
1
243878
1
243622
1
242984
1
242404
1
243589
1
243085
1
242673
1
242622
1
242584
1
243242
1
243597
1
243604
1
243556
1
242403
1
242629
1
243120
1
243412
1
243666
1
243341
1
243445
1
242767
1
242961
1
242743
1
243039
1
243178
1
243220
1
243087
1
242985
1
242748
1
242469
1
242778
1
243115
1
243154
1
243502
1
243548
1
244224
1
244199
1
243838
1
243129
1
243783
1
243715
1
243726
1
243688
1
243691
1
243648
1
243520
1
243114
1
243304
1
244287
1
243559
1
243165
1
243878
1
243913
1
243839
1
243933
1
243044
1
243839
1
243407
1
243419
1
243563
1
243394
1
243034
1
243860
1
243559
1
243514
1
243203
1
243560
1
243219
1
243529
1
243215
1
243509
1
242897
1
243280
1
243501
1
243273
1
243160
1
242928
1
242844
1
242894
1
242257
1
243173
1
242367
1
243572
1
243684
1
242709
1
242493
1
243313
1
243292
1
243018
1
242805
1
243585
1
242526
1
243330
1
243536
1
243104
1
242668
1
243642
1
243796
1
243379
1
243042
1
242728
1
242972
1
242833
1
243271
1
243972
1
244360
1
243650
1
243220
1
243402
1
243647
1
244428
1
244506
1
244062
1
243958
1
243724
1
243808
1
244486
1
244346
1
244362
1
245146
1
244784
1
244885
1
245026
1
244698
1
245278
1
244832
1
244411
1
244826
1
245197
1
244682
1
244865
1
245233
1
244552
1
244141
1
244887
1
245422
1
244473
1
244747
1
244588
1
244252
1
244620
1
244786
1
244211
1
244294
1
244659
1
244291
1
244948
1
244576
1
244654
1
244579
1
244208
1
243565
1
243763
1
243681
1
243503
1
243999
1
243432
1
243070
1
243829
1
243643
1
242960
1
243127
1
243228
1
243625
1
242640
1
242923
1
242385
1
242271
1
242539
1
242773
1
241876
1
241757
1
242714
1
242082
1
242316
1
242071
1
241001
1
241091
1
240410
1
240496
1
240241
1
240493
1
239675
1
239514
1
239233
1
238824
1
238986
1
239167
1
239462
1
239506
1
238296
1
237870
1
237921
1
237390
1
237383
1
236738
1
236775
1
236544
1
236099
1
235383
1
235244
1
235757
1
235800
1
235089
1
234775
1
233776
1
234731
1
234368
1
233852
1
233515
1
233122
1
232800
1
232901
1
232789
1
233075
1
232861
1
232824
1
232528
1
232272
1
232172
1
231431
1
231326
1
231496
1
231757
1
231280
1
230709
1
230617
1
231457
1
230793
1
230696
1
230112
1
230036
1
230226
1
229995
1
230374
1
229882
1
229927
1
230324
1
229173
1
228912
1
229041
1
229336
1
229547
1
229469
1
228251
1
229458
1
229405
1
228163
1
228351
1
228814
1
228585
1
228463
1
228627
1
228816
1
228542
1
228365
1
229153
1
228722
1
228772
1
227734
1
227299
1
227570
1
227502
1
228077
1
227818
1
228082
1
227190
1
228021
1
227159
1
227151
1
227305
1
226944
1
226633
1
227431
1
227576
1
227960
1
227308
1
227545
1
227459
1
226713
1
227302
1
226973
1
227399
1
227319
1
227632
1
227217
1
227990
1
226964
1
227002
1
227548
1
226781
1
227748
1
227331
1
227073
1
226861
1
226767
1
227821
1
227781
1
227459
1
226880
1
226495
1
226999
1
227060
1
227476
1
228774
1
227987
1
227081
1
227683
1
227165
1
227306
1
227229
1
227314
1
227090
1
226541
1
227774
1
227880
1
227033
1
227112
1
227697
1
227538
1
227354
1
227821
1
227523
1
228160
1
227658
1
227776
1
227368
1
227157
1
227672
1
227596
1
227799
1
227767
1
227286
1
227140
1
227253
1
226995
1
227165
1
227222
1
227771
1
227349
1
227655
1
227983
1
228004
1
227739
1
226764
1
227786
1
228245
1
O KLL
PK_Cu_AES
2020
2
20
13
31
23
1
42
Casa Info Follows
0
0
0
0
Creation
Created by : DESKTOP-MI6NA2R\kratos
Date created : 20/02/2020 13:31
Computer : DESKTOP-MI6NA2R
Location
Location ID : 1: PK_Cu_AES
Sample : PK_Cu_AES
Description : (43.434,6.505,-2.973)mm
Tilt : 0.00
Charge Neutraliser : Off
Settings
Excitation
Mode : FEG Electron Gun
Tuning : 10 keV
Spot size : 0
Anode library : AES
ESCA modes
Collimation : AES
Lens : AES
Resolution : 3.00
Scan
Deflection : (0.000, 0.000)mm
O KLL : 440.600-570.400eV, Sweeps 5
Start : 440.600eV
End : 570.400eV
Centre : 505.500eV
Width : 129.800eV
Step size : 0.200eV
Number Steps : 649
Dwell time : 277ms
Sweep time : 180s
Sweeps : 5
Target quality : 200
Instrument Conditions
Work function : -4.50
Acquisition Conditions
Quality : 103.10
XPS
3
43.434
6.50523
-2.9731
Not specified
0
1e+037
1e+037
1e+037
1e+037
1e+037
FAT
3
1e+037
-4.5
1e+037
1e+037
1e+037
1e+037
1e+037
O
KLL
-1
Kinetic energy
eV
440.6
0.2
2
Intensity
d
Transmission
d
pulse counting
0.276923
5
0
1e+037
1e+037
1e+037
0
1300
185105
215747
1
1
187519
1
187077
1
187039
1
186483
1
187263
1
187775
1
187020
1
187113
1
187257
1
187820
1
187381
1
186757
1
187185
1
187528
1
187541
1
188124
1
187409
1
187566
1
187517
1
187081
1
187244
1
187666
1
188744
1
187647
1
187288
1
187868
1
187552
1
187894
1
187854
1
187798
1
187667
1
187430
1
187250
1
187644
1
187501
1
188317
1
188522
1
188057
1
188041
1
188143
1
187897
1
188645
1
188126
1
188155
1
188611
1
188601
1
188782
1
188119
1
188156
1
188269
1
188090
1
187834
1
187408
1
187834
1
188649
1
188795
1
188732
1
188351
1
188778
1
188310
1
188644
1
188345
1
188702
1
188806
1
188926
1
189013
1
188163
1
188690
1
188812
1
188701
1
188294
1
188858
1
189534
1
189503
1
188871
1
188406
1
188293
1
188581
1
188572
1
189050
1
188920
1
188622
1
188756
1
188587
1
189010
1
189037
1
189496
1
189243
1
189979
1
189705
1
189453
1
189505
1
189553
1
189436
1
190174
1
190037
1
190306
1
189711
1
190216
1
189798
1
190121
1
190518
1
190324
1
190988
1
190617
1
190725
1
190325
1
190845
1
190630
1
190289
1
189938
1
190533
1
190468
1
190808
1
191253
1
191734
1
191779
1
191196
1
191332
1
191525
1
191919
1
191713
1
192196
1
191797
1
192749
1
192110
1
192474
1
192239
1
192770
1
192771
1
192961
1
192869
1
192709
1
193265
1
193567
1
193188
1
194076
1
194036
1
193618
1
193720
1
194051
1
193761
1
194363
1
194211
1
194023
1
193813
1
194314
1
193918
1
194201
1
194095
1
194616
1
195059
1
194719
1
194678
1
195139
1
194588
1
194842
1
195107
1
194641
1
194631
1
194806
1
195352
1
195669
1
195047
1
195543
1
194756
1
195266
1
194893
1
195017
1
195091
1
195635
1
195451
1
195482
1
195344
1
195218
1
196059
1
195819
1
195556
1
195643
1
195372
1
195734
1
196021
1
195373
1
196092
1
195788
1
195318
1
195862
1
195992
1
195446
1
195894
1
195670
1
195680
1
196456
1
196130
1
196339
1
196420
1
197220
1
196188
1
196663
1
196562
1
197065
1
196407
1
196663
1
196739
1
197050
1
197291
1
197869
1
197769
1
198111
1
197807
1
197980
1
198412
1
197657
1
198366
1
199288
1
198535
1
199772
1
199592
1
199969
1
200486
1
200316
1
200275
1
200992
1
200502
1
200388
1
201457
1
201386
1
201021
1
201505
1
201552
1
201238
1
201758
1
201471
1
200883
1
200874
1
200820
1
200735
1
200891
1
200501
1
200967
1
200640
1
200405
1
200864
1
200543
1
200466
1
200773
1
200557
1
200027
1
200664
1
200731
1
200752
1
200310
1
200278
1
200448
1
200067
1
199634
1
199828
1
199988
1
199891
1
199870
1
199705
1
199652
1
199730
1
199366
1
199367
1
198960
1
198357
1
198469
1
199140
1
198835
1
198551
1
198084
1
198138
1
199016
1
199353
1
199671
1
199237
1
199041
1
198745
1
199448
1
199338
1
199701
1
199408
1
199026
1
199549
1
199567
1
199586
1
199827
1
200665
1
199696
1
199483
1
199909
1
199619
1
199596
1
200103
1
200892
1
200779
1
200740
1
201283
1
201409
1
200937
1
202077
1
202001
1
201715
1
202496
1
202798
1
203677
1
203498
1
204305
1
204209
1
204785
1
205451
1
205125
1
205339
1
206050
1
206895
1
207687
1
208732
1
209575
1
208632
1
209584
1
210337
1
210458
1
211146
1
211749
1
211965
1
212290
1
212495
1
213037
1
213915
1
213800
1
213850
1
214222
1
214520
1
214772
1
214445
1
215085
1
215747
1
215208
1
214909
1
213794
1
213909
1
214548
1
214076
1
214484
1
213621
1
213037
1
212359
1
212317
1
212350
1
211316
1
210733
1
210145
1
209496
1
209203
1
208473
1
207370
1
206093
1
204669
1
205629
1
204130
1
203139
1
201032
1
201380
1
201286
1
200567
1
200666
1
199016
1
198406
1
197725
1
196977
1
196985
1
196218
1
195612
1
195417
1
195221
1
194820
1
194548
1
194387
1
193664
1
192736
1
192921
1
193028
1
192631
1
191908
1
191240
1
191235
1
190981
1
190925
1
189943
1
190198
1
189418
1
188763
1
189155
1
188672
1
189280
1
188610
1
187734
1
188041
1
187771
1
187854
1
187673
1
186410
1
187064
1
187512
1
187572
1
187523
1
185977
1
185768
1
186863
1
186480
1
186451
1
186329
1
186093
1
186564
1
185951
1
186190
1
185733
1
186264
1
186215
1
185820
1
186163
1
185258
1
185859
1
186007
1
186050
1
185850
1
185878
1
185342
1
185219
1
186149
1
185495
1
185392
1
186011
1
185586
1
185278
1
185651
1
185634
1
185951
1
185486
1
185359
1
186267
1
186201
1
185914
1
185105
1
185191
1
185831
1
185727
1
186117
1
185594
1
185863
1
185874
1
185961
1
186084
1
185666
1
186575
1
186581
1
185717
1
185508
1
185447
1
185886
1
186306
1
185771
1
185849
1
186077
1
186282
1
186845
1
187136
1
186421
1
186329
1
185669
1
185948
1
186618
1
186192
1
186034
1
186263
1
186796
1
186746
1
187266
1
187138
1
186465
1
186593
1
186748
1
186919
1
186842
1
188005
1
187405
1
186642
1
186779
1
187435
1
186401
1
187623
1
186590
1
187183
1
187378
1
187072
1
187227
1
186547
1
187334
1
187057
1
187445
1
187621
1
187036
1
187762
1
187814
1
187612
1
187648
1
188088
1
187508
1
187770
1
187452
1
187886
1
187834
1
187881
1
188083
1
187280
1
188058
1
188423
1
187887
1
188729
1
188141
1
187654
1
188464
1
188839
1
187959
1
187777
1
188281
1
188489
1
187924
1
188016
1
188249
1
188563
1
188411
1
188219
1
188579
1
188560
1
188746
1
188473
1
188299
1
188048
1
188542
1
188735
1
189084
1
188688
1
188825
1
188354
1
188531
1
188709
1
188233
1
188295
1
188641
1
188786
1
188853
1
188927
1
188296
1
187999
1
188531
1
188500
1
188561
1
188803
1
189216
1
188103
1
187991
1
188062
1
188678
1
188980
1
188782
1
188988
1
189405
1
189204
1
187990
1
188123
1
188716
1
188864
1
188461
1
188323
1
188716
1
188962
1
189055
1
188861
1
188974
1
189294
1
188379
1
189048
1
188916
1
188371
1
188802
1
188659
1
188880
1
188400
1
188810
1
188618
1
188900
1
189083
1
189400
1
188880
1
188758
1
188920
1
189444
1
189468
1
189808
1
189705
1
189343
1
188795
1
188881
1
189060
1
189090
1
189018
1
188461
1
188922
1
189023
1
189670
1
188868
1
189210
1
189023
1
189686
1
190017
1
189300
1
189384
1
189117
1
189197
1
189553
1
189163
1
189166
1
188932
1
189342
1
188884
1
189165
1
189365
1
189294
1
189285
1
189655
1
189532
1
189710
1
189149
1
189600
1
189881
1
189220
1
189624
1
189258
1
190062
1
190290
1
190082
1
190521
1
189790
1
190247
1
190080
1
189760
1
190241
1
190042
1
Cu LMM
PK_Cu_AES
2020
2
20
13
31
23
1
42
Casa Info Follows
0
0
0
0
Creation
Created by : DESKTOP-MI6NA2R\kratos
Date created : 20/02/2020 13:31
Computer : DESKTOP-MI6NA2R
Location
Location ID : 1: PK_Cu_AES
Sample : PK_Cu_AES
Description : (43.434,6.505,-2.973)mm
Tilt : 0.00
Charge Neutraliser : Off
Settings
Excitation
Mode : FEG Electron Gun
Tuning : 10 keV
Spot size : 0
Anode library : AES
ESCA modes
Collimation : AES
Lens : AES
Resolution : 3.00
Scan
Deflection : (0.000, 0.000)mm
Cu LMM : 750.000-950.000eV, Sweeps 5
Start : 750.000eV
End : 950.000eV
Centre : 850.000eV
Width : 200.000eV
Step size : 0.200eV
Number Steps : 1000
Dwell time : 180ms
Sweep time : 180s
Sweeps : 5
Target quality : 200
Instrument Conditions
Work function : -4.50
Acquisition Conditions
Quality : 187.02
XPS
4
43.434
6.50523
-2.9731
Not specified
0
1e+037
1e+037
1e+037
1e+037
1e+037
FAT
3
1e+037
-4.5
1e+037
1e+037
1e+037
1e+037
1e+037
Cu
LMM
-1
Kinetic energy
eV
750
0.2
2
Intensity
d
Transmission
d
pulse counting
0.17982
5
0
1e+037
1e+037
1e+037
0
2002
118118
166532
1
1
150383
1
150179
1
150063
1
150344
1
150788
1
149962
1
150515
1
150781
1
150726
1
150157
1
150779
1
150800
1
151345
1
150649
1
150700
1
150645
1
151075
1
150759
1
151469
1
151349
1
151864
1
151668
1
151411
1
151534
1
151475
1
151541
1
151513
1
152147
1
151925
1
151416
1
151440
1
152171
1
152406
1
152753
1
152814
1
151753
1
152016
1
152415
1
152335
1
152724
1
152973
1
153303
1
152655
1
152268
1
152400
1
152533
1
152267
1
152082
1
152866
1
152519
1
153090
1
152358
1
152869
1
153597
1
154009
1
153593
1
153728
1
153165
1
153306
1
153796
1
153765
1
154197
1
153681
1
153737
1
153723
1
153685
1
154761
1
154916
1
154557
1
155282
1
155374
1
154890
1
153928
1
154565
1
154307
1
154816
1
154866
1
154809
1
154795
1
155497
1
155349
1
155256
1
155519
1
155672
1
155625
1
155197
1
155154
1
154735
1
154959
1
154840
1
154129
1
154792
1
155832
1
154610
1
154824
1
154646
1
154339
1
154436
1
154670
1
154185
1
153869
1
154187
1
154061
1
153195
1
154005
1
154270
1
153599
1
154127
1
154145
1
154103
1
153660
1
153932
1
153358
1
153065
1
153433
1
153591
1
153030
1
153264
1
153832
1
153485
1
153037
1
153299
1
152239
1
152654
1
153064
1
152436
1
151828
1
151849
1
151206
1
150962
1
150822
1
150213
1
149901
1
150051
1
149882
1
149435
1
149103
1
149143
1
148516
1
148211
1
148653
1
148084
1
147735
1
147599
1
147449
1
146862
1
147173
1
147172
1
146668
1
146426
1
146167
1
146822
1
146634
1
146750
1
147040
1
146118
1
145792
1
146128
1
145967
1
145894
1
146051
1
146041
1
145682
1
146290
1
145906
1
145947
1
145890
1
146070
1
146028
1
146268
1
146216
1
145594
1
145650
1
145395
1
145976
1
145941
1
145812
1
146320
1
145521
1
145186
1
146459
1
146020
1
145898
1
145660
1
145680
1
145819
1
146104
1
145866
1
146461
1
146112
1
146400
1
145892
1
145955
1
146079
1
145485
1
145689
1
145470
1
145425
1
145334
1
145345
1
145463
1
146103
1
145762
1
145584
1
145963
1
145792
1
145962
1
145596
1
145422
1
146054
1
145711
1
145187
1
145454
1
145950
1
145404
1
145639
1
145868
1
145832
1
146290
1
146099
1
145494
1
145805
1
146392
1
145599
1
145714
1
145424
1
146108
1
145133
1
145370
1
145702
1
145355
1
145739
1
146279
1
145929
1
145741
1
145832
1
145679
1
145575
1
145579
1
145916
1
145421
1
145657
1
145475
1
145586
1
145240
1
145008
1
144977
1
144851
1
145084
1
144833
1
144913
1
144794
1
145775
1
144724
1
144533
1
144157
1
144685
1
144598
1
145056
1
145213
1
145214
1
144809
1
144372
1
145482
1
144847
1
144564
1
144367
1
145155
1
144750
1
144925
1
144824
1
144917
1
144951
1
144824
1
144757
1
144854
1
145772
1
145482
1
145198
1
144700
1
145230
1
145792
1
145788
1
145613
1
145766
1
145362
1
145718
1
145947
1
146137
1
145860
1
145833
1
146185
1
146444
1
146308
1
146791
1
146275
1
146094
1
146074
1
145879
1
146258
1
146594
1
147053
1
146900
1
147030
1
147072
1
146268
1
146701
1
146549
1
146996
1
147051
1
147198
1
147183
1
146906
1
146659
1
147142
1
147016
1
147774
1
147068
1
147491
1
147430
1
147585
1
146923
1
147054
1
147226
1
147029
1
147743
1
147198
1
147447
1
147583
1
147734
1
147500
1
148063
1
148127
1
147416
1
147549
1
147844
1
148055
1
148561
1
148817
1
148945
1
148492
1
148382
1
149160
1
148670
1
148650
1
148670
1
148260
1
148283
1
149140
1
148438
1
148751
1
148839
1
148709
1
149207
1
149396
1
148882
1
149210
1
149305
1
148704
1
149312
1
149277
1
148875
1
149301
1
149474
1
149285
1
148759
1
149373
1
149119
1
149661
1
149935
1
149518
1
149293
1
149521
1
149672
1
150376
1
150097
1
150495
1
150499
1
150409
1
150456
1
150688
1
150690
1
151089
1
150773
1
151274
1
151238
1
151129
1
151192
1
151662
1
151912
1
151984
1
151616
1
152195
1
151918
1
151877
1
152467
1
152395
1
151935
1
152478
1
152837
1
153068
1
152951
1
153779
1
153318
1
153836
1
153604
1
153243
1
153515
1
153751
1
153762
1
153469
1
153848
1
153451
1
153877
1
153965
1
154114
1
154247
1
154857
1
154492
1
154331
1
154185
1
154617
1
154712
1
154550
1
155053
1
155858
1
155151
1
155024
1
155991
1
156707
1
157075
1
157502
1
158033
1
157910
1
158446
1
158241
1
158558
1
158952
1
159472
1
159167
1
158814
1
158739
1
158540
1
158063
1
158147
1
158198
1
157643
1
157079
1
156712
1
156412
1
155519
1
155484
1
154705
1
153894
1
153954
1
152835
1
153172
1
152449
1
151662
1
151547
1
151249
1
150875
1
151118
1
151469
1
151209
1
150937
1
151159
1
149898
1
150074
1
150321
1
150016
1
150263
1
150924
1
150343
1
151069
1
150896
1
150850
1
150983
1
151002
1
151057
1
150572
1
150296
1
150826
1
150471
1
149760
1
149772
1
149529
1
149217
1
148248
1
148437
1
147850
1
147669
1
147018
1
147246
1
146451
1
145750
1
145491
1
145732
1
145353
1
144916
1
144404
1
144299
1
143492
1
143342
1
142883
1
143399
1
142363
1
142959
1
142192
1
141968
1
142263
1
142162
1
141680
1
141539
1
141463
1
141290
1
140787
1
140446
1
140245
1
140116
1
140665
1
140608
1
141027
1
140692
1
140627
1
140832
1
140880
1
140231
1
140427
1
140125
1
140389
1
139774
1
140293
1
140530
1
140270
1
139904
1
140258
1
140366
1
139968
1
140338
1
140027
1
139340
1
139538
1
139793
1
139891
1
139556
1
139640
1
139351
1
138989
1
139191
1
138464
1
138503
1
138627
1
138176
1
137829
1
137477
1
137828
1
138039
1
138556
1
137812
1
137320
1
137491
1
138429
1
137577
1
137624
1
137144
1
137218
1
137142
1
137435
1
137360
1
137237
1
136913
1
136836
1
136644
1
137159
1
137207
1
136619
1
137406
1
137246
1
136438
1
136638
1
136881
1
136884
1
136479
1
136137
1
136259
1
136430
1
136459
1
135949
1
135887
1
135749
1
135876
1
136336
1
135891
1
135638
1
135133
1
135955
1
135467
1
136011
1
135768
1
135518
1
135576
1
135721
1
135806
1
136021
1
136578
1
135771
1
135857
1
135493
1
135782
1
135420
1
135683
1
135857
1
135938
1
135151
1
135941
1
136092
1
136188
1
136410
1
136475
1
136254
1
136283
1
136298
1
135387
1
135917
1
136079
1
135997
1
136402
1
136383
1
136364
1
136447
1
135790
1
136406
1
136556
1
136124
1
135832
1
136368
1
136319
1
136629
1
136431
1
136500
1
136864
1
136774
1
136284
1
136453
1
136487
1
136449
1
136534
1
136502
1
137017
1
137227
1
136902
1
137309
1
137222
1
137040
1
136943
1
137404
1
137860
1
137558
1
137229
1
137690
1
136955
1
137243
1
138136
1
137455
1
137684
1
137948
1
137197
1
137165
1
137634
1
137559
1
137804
1
137879
1
137909
1
137516
1
138191
1
138345
1
138246
1
138247
1
138595
1
138140
1
138504
1
139146
1
139242
1
139192
1
138840
1
138804
1
138645
1
139069
1
138927
1
139077
1
139530
1
139543
1
139421
1
139022
1
138908
1
139757
1
140256
1
139494
1
138990
1
139805
1
139727
1
139228
1
139631
1
139971
1
139715
1
140397
1
140337
1
139640
1
140174
1
140036
1
140155
1
140341
1
140270
1
140334
1
140673
1
140498
1
140504
1
140666
1
140244
1
140738
1
140917
1
140487
1
140746
1
140303
1
140954
1
140566
1
140835
1
140765
1
141496
1
140688
1
141310
1
140566
1
141201
1
141682
1
141396
1
140946
1
141385
1
141347
1
140681
1
141037
1
141146
1
141014
1
141272
1
141423
1
140614
1
141007
1
140931
1
141271
1
141875
1
141688
1
141330
1
141699
1
141661
1
141653
1
141710
1
141622
1
141742
1
141778
1
141380
1
141599
1
141806
1
142389
1
142602
1
142022
1
142178
1
142133
1
142460
1
142479
1
142586
1
142801
1
142772
1
142575
1
142943
1
143215
1
143248
1
143286
1
143414
1
143652
1
143843
1
144026
1
144542
1
144190
1
144253
1
144397
1
144440
1
145221
1
144841
1
144750
1
145060
1
145738
1
145512
1
146152
1
146507
1
146435
1
146601
1
146701
1
146928
1
147308
1
147238
1
148108
1
148084
1
148332
1
148448
1
149113
1
149327
1
149961
1
149867
1
150439
1
150782
1
151538
1
151694
1
152337
1
152645
1
153506
1
153882
1
153957
1
154774
1
155926
1
155456
1
156738
1
157231
1
158126
1
158146
1
158667
1
159601
1
159611
1
159916
1
161370
1
162381
1
163398
1
165331
1
166164
1
166405
1
166507
1
166194
1
166532
1
165950
1
165397
1
164829
1
164893
1
163126
1
162113
1
161984
1
160956
1
160308
1
159523
1
158703
1
156786
1
155184
1
153543
1
150603
1
147879
1
145477
1
143982
1
141962
1
140702
1
139671
1
138321
1
137820
1
137153
1
136375
1
135747
1
134933
1
133722
1
133231
1
132355
1
131789
1
131403
1
130852
1
130650
1
130239
1
130872
1
130538
1
130031
1
130057
1
129590
1
129181
1
129453
1
128930
1
129690
1
129344
1
128445
1
128310
1
128363
1
128485
1
128284
1
127717
1
127960
1
128023
1
127431
1
126655
1
127224
1
127327
1
126862
1
126689
1
127160
1
127089
1
126475
1
126637
1
126868
1
126111
1
126634
1
126758
1
126740
1
126616
1
125861
1
126565
1
126925
1
126515
1
127416
1
127580
1
127403
1
126994
1
127401
1
126824
1
126852
1
127053
1
127060
1
127173
1
127109
1
127395
1
127271
1
127292
1
127238
1
126672
1
127006
1
127145
1
126620
1
127358
1
127134
1
126969
1
126872
1
126987
1
126919
1
126983
1
126608
1
126084
1
126120
1
126507
1
126076
1
125793
1
125761
1
125830
1
125659
1
125582
1
125441
1
124455
1
124502
1
123943
1
123600
1
123885
1
122665
1
122237
1
121823
1
121677
1
121983
1
120941
1
121092
1
120273
1
120585
1
120341
1
120959
1
120341
1
119966
1
119991
1
119847
1
119736
1
119759
1
119706
1
119309
1
119516
1
119421
1
119203
1
119511
1
119944
1
119360
1
119433
1
119547
1
119521
1
119161
1
118722
1
119093
1
119012
1
119180
1
118685
1
118873
1
118683
1
118976
1
118985
1
119139
1
119048
1
118527
1
118710
1
118771
1
118754
1
118315
1
118118
1
118629
1
118879
1
118694
1
end of experiment
